f[Hz]	Cgd[F/m]	Cgs[F/m]	Cds[F/m]	Ri[ohm/m]	gm0[S/m]	gds[S/m]	tau[s]
1.5258789e+010	2.0562370e-010	-4.3973524e-011	6.1279526e-010	-1.7486478e-001	584.110143	125.380295	7.4558192e-012
3.0517578e+010	1.4457108e-010	6.3487363e-011	4.3991533e-010	-4.8029178e-002	574.886166	152.583325	2.3209311e-012
4.5776367e+010	8.6653999e-011	1.2351913e-010	2.7885428e-010	-5.9580766e-003	522.368422	171.336471	6.0764163e-013
6.1035156e+010	5.1269244e-011	1.6216892e-010	1.8159303e-010	-1.8217857e-003	514.249787	174.046653	3.5139327e-013
7.6293945e+010	3.9845720e-011	1.7355258e-010	1.4883789e-010	-9.0388199e-004	505.990786	167.423432	2.6167871e-013
9.1552734e+010	4.0946110e-011	1.7245729e-010	1.4908748e-010	-6.7542758e-004	503.032649	161.252848	2.1213139e-013
1.0681152e+011	4.3165249e-011	1.7268086e-010	1.5354676e-010	-5.5710304e-004	505.718032	158.583506	1.8756193e-013
1.2207031e+011	4.3101545e-011	1.7615398e-010	1.5392151e-010	-3.6270532e-004	507.105499	156.721579	1.6875544e-013
1.3732910e+011	4.2961824e-011	1.7796962e-010	1.5483568e-010	-1.4863087e-004	503.036374	153.879125	1.4335706e-013
1.5258789e+011	4.4118320e-011	1.7618548e-010	1.5889989e-010	2.3706631e-006	496.249581	151.625980	1.1418840e-013
1.6784668e+011	4.5134989e-011	1.7389953e-010	1.6275940e-010	7.2487191e-005	491.710151	151.657214	9.1883729e-014
1.8310547e+011	4.4654136e-011	1.7400460e-010	1.6327577e-010	1.0413418e-004	490.751158	153.116382	8.0121853e-014
1.9836426e+011	4.3412824e-011	1.7541980e-010	1.6161538e-010	1.4293959e-004	490.911228	154.083605	7.2335994e-014
2.1362305e+011	4.2781373e-011	1.7555014e-010	1.6041541e-010	1.8829485e-004	490.220969	154.052256	6.3331741e-014
2.2888184e+011	4.2887059e-011	1.7403992e-010	1.6014142e-010	2.1532651e-004	489.193326	153.672184	5.5044066e-014
2.4414062e+011	4.3072807e-011	1.7249525e-010	1.5982779e-010	2.1432255e-004	489.137449	152.989513	5.0718058e-014
2.5939941e+011	4.3237575e-011	1.7185072e-010	1.5952980e-010	2.0193275e-004	490.427834	151.353627	4.8855797e-014
2.7465820e+011	4.3747458e-011	1.7159499e-010	1.6019251e-010	1.9806133e-004	492.702220	148.826178	4.6037919e-014
2.8991699e+011	4.4517448e-011	1.7117127e-010	1.6186250e-010	2.0569891e-004	495.558838	146.490105	4.2160164e-014
3.0517578e+011	4.5067969e-011	1.7069405e-010	1.6356578e-010	2.1698144e-004	498.490519	145.173863	3.9412649e-014
3.2043457e+011	4.5327643e-011	1.7025518e-010	1.6477079e-010	2.2617668e-004	500.920101	144.680973	3.8330970e-014
3.3569336e+011	4.5697664e-011	1.6959126e-010	1.6584088e-010	2.3285228e-004	502.712412	144.504510	3.7608874e-014
3.5095215e+011	4.6358771e-011	1.6862452e-010	1.6703835e-010	2.3812560e-004	504.076237	144.575296	3.6650471e-014
3.6621094e+011	4.7062645e-011	1.6763420e-010	1.6802277e-010	2.4263219e-004	504.872249	144.904315	3.5908147e-014
3.8146973e+011	4.7636450e-011	1.6672715e-010	1.6853442e-010	2.4660386e-004	504.756008	145.024860	3.5194662e-014
3.9672852e+011	4.8229437e-011	1.6567923e-010	1.6887694e-010	2.4921071e-004	504.170231	144.307309	3.3718408e-014
4.1198730e+011	4.8970603e-011	1.6444737e-010	1.6945491e-010	2.4878790e-004	504.306753	142.590277	3.1729863e-014
4.2724609e+011	4.9755862e-011	1.6336162e-010	1.7032405e-010	2.4542012e-004	505.608929	140.151475	3.0430413e-014
4.4250488e+011	5.0488859e-011	1.6262743e-010	1.7142582e-010	2.4216841e-004	507.067426	137.287840	3.0051608e-014
4.5776367e+011	5.1229894e-011	1.6203814e-010	1.7284313e-010	2.4187893e-004	507.579040	134.274329	2.9512747e-014
4.7302246e+011	5.1988477e-011	1.6137205e-010	1.7456724e-010	2.4393530e-004	507.309159	131.536861	2.8178352e-014
4.8828125e+011	5.2631418e-011	1.6071881e-010	1.7634115e-010	2.4578729e-004	507.130048	129.460552	2.6625277e-014
5.0354004e+011	5.3128624e-011	1.6020337e-010	1.7798754e-010	2.4662917e-004	507.332672	128.078409	2.5361088e-014
5.1879883e+011	5.3666606e-011	1.5968508e-010	1.7963664e-010	2.4787977e-004	507.617037	127.230404	2.3959969e-014
5.3405762e+011	5.4375775e-011	1.5897146e-010	1.8140389e-010	2.5044826e-004	507.872877	126.913924	2.2019911e-014
5.4931641e+011	5.5130206e-011	1.5812076e-010	1.8308506e-010	2.5330283e-004	508.192814	127.134962	1.9987097e-014
5.6457520e+011	5.5761084e-011	1.5731106e-010	1.8443409e-010	2.5494465e-004	508.451864	127.502220	1.8376035e-014
5.7983398e+011	5.6307668e-011	1.5657215e-010	1.8556342e-010	2.5508705e-004	508.628485	127.411786	1.6940057e-014
5.9509277e+011	5.6901798e-011	1.5584609e-010	1.8679381e-010	2.5443974e-004	509.233348	126.727744	1.5292790e-014
6.1035156e+011	5.7532937e-011	1.5517790e-010	1.8821573e-010	2.5370063e-004	510.643932	125.933386	1.3723366e-014
6.2561035e+011	5.8091780e-011	1.5464767e-010	1.8965357e-010	2.5322860e-004	512.277557	125.482123	1.2675684e-014
6.4086914e+011	5.8559917e-011	1.5420527e-010	1.9099775e-010	2.5307100e-004	513.274331	125.319427	1.1906624e-014
6.5612793e+011	5.9003419e-011	1.5374655e-010	1.9232382e-010	2.5288935e-004	513.808350	125.215130	1.0876368e-014
6.7138672e+011	5.9434102e-011	1.5328755e-010	1.9369054e-010	2.5220127e-004	514.845520	125.233451	9.6375989e-015
6.8664551e+011	5.9811341e-011	1.5291843e-010	1.9503972e-010	2.5093174e-004	516.663982	125.568425	8.6692752e-015
7.0190430e+011	6.0145350e-011	1.5264618e-010	1.9634121e-010	2.4949511e-004	518.568568	126.144748	8.0175504e-015
7.1716309e+011	6.0486083e-011	1.5241046e-010	1.9767702e-010	2.4830000e-004	520.218692	126.767260	7.2473337e-015
7.3242188e+011	6.0839240e-011	1.5219101e-010	1.9912385e-010	2.4748473e-004	522.290615	127.591510	6.1708019e-015
7.4768066e+011	6.1186884e-011	1.5197928e-010	2.0065817e-010	2.4707362e-004	525.431845	129.082017	5.0882085e-015
7.6293945e+011	6.1551801e-011	1.5171620e-010	2.0221306e-010	2.4695880e-004	529.282772	131.471762	4.3157595e-015
7.7819824e+011	6.1943728e-011	1.5138871e-010	2.0373539e-010	2.4671921e-004	533.001993	134.577038	3.9148726e-015
7.9345703e+011	6.2279240e-011	1.5112291e-010	2.0515490e-010	2.4588417e-004	536.215173	138.227898	3.8772086e-015
8.0871582e+011	6.2460484e-011	1.5104556e-010	2.0638321e-010	2.4444873e-004	539.052327	142.557184	4.1695500e-015
8.2397461e+011	6.2511343e-011	1.5110718e-010	2.0739000e-010	2.4276615e-004	541.746428	147.657849	4.5884613e-015
8.3923340e+011	6.2538366e-011	1.5117619e-010	2.0823333e-010	2.4095356e-004	544.611807	153.213448	4.9155531e-015
8.5449219e+011	6.2579438e-011	1.5124759e-010	2.0899558e-010	2.3887335e-004	548.007296	158.799138	5.2255908e-015
8.6975098e+011	6.2593377e-011	1.5140296e-010	2.0972854e-010	2.3667875e-004	551.886278	164.467911	5.7463864e-015
8.8500977e+011	6.2580637e-011	1.5161292e-010	2.1045147e-010	2.3478800e-004	555.698693	170.728754	6.4492206e-015
9.0026855e+011	6.2596515e-011	1.5176374e-010	2.1113622e-010	2.3319250e-004	559.078846	177.907844	7.1025228e-015
9.1552734e+011	6.2636376e-011	1.5187153e-010	2.1168939e-010	2.3136697e-004	562.279319	185.766046	7.6940379e-015
9.3078613e+011	6.2618476e-011	1.5208570e-010	2.1201639e-010	2.2909179e-004	565.603499	193.798351	8.4379234e-015
9.4604492e+011	6.2509423e-011	1.5244963e-010	2.1212525e-010	2.2683437e-004	568.858207	201.664936	9.3387175e-015
9.6130371e+011	6.2375222e-011	1.5282483e-010	2.1212559e-010	2.2498592e-004	571.844194	209.214188	1.0115404e-014
9.7656250e+011	6.2277460e-011	1.5310525e-010	2.1212376e-010	2.2323476e-004	574.962902	216.347207	1.0645464e-014
9.9182129e+011	6.2202804e-011	1.5335488e-010	2.1216289e-010	2.2112689e-004	578.712555	223.128029	1.1147149e-014
1.0070801e+012	6.2219407e-011	1.5347675e-010	2.1239494e-010	2.1898364e-004	581.955484	227.983476	1.1487816e-014
1.0223389e+012	6.2335087e-011	1.5342153e-010	2.1280069e-010	2.1712406e-004	584.305860	231.037085	1.1531721e-014
1.0375977e+012	6.2454861e-011	1.5335796e-010	2.1322921e-010	2.1537186e-004	586.701573	234.222906	1.1545479e-014
1.0528564e+012	6.2566977e-011	1.5329725e-010	2.1366384e-010	2.1365224e-004	589.222970	237.600649	1.1563630e-014
1.0681152e+012	6.2660097e-011	1.5325340e-010	2.1408477e-010	2.1190723e-004	591.881818	241.155836	1.1626564e-014
1.0833740e+012	6.2734039e-011	1.5322977e-010	2.1449428e-010	2.1012897e-004	594.619310	244.829733	1.1732180e-014
1.0986328e+012	6.2799234e-011	1.5321862e-010	2.1491436e-010	2.0833893e-004	597.429643	248.622545	1.1841536e-014
1.1138916e+012	6.2864446e-011	1.5321609e-010	2.1535959e-010	2.0655129e-004	600.410864	252.607270	1.1937434e-014
1.1291504e+012	6.2930137e-011	1.5322884e-010	2.1582725e-010	2.0478661e-004	603.628782	256.841151	1.2046239e-014
1.1444092e+012	6.2995518e-011	1.5325967e-010	2.1631641e-010	2.0310252e-004	606.988829	261.338940	1.2187274e-014
1.1596680e+012	6.3062908e-011	1.5329752e-010	2.1683558e-010	2.0154903e-004	610.343834	266.163393	1.2338256e-014
1.1749268e+012	6.3127682e-011	1.5333566e-010	2.1737736e-010	2.0008504e-004	613.699354	271.464036	1.2483173e-014
1.1901855e+012	6.3172487e-011	1.5339062e-010	2.1790338e-010	1.9860602e-004	617.185216	277.355424	1.2660051e-014
1.2054443e+012	6.3183750e-011	1.5348252e-010	2.1837615e-010	1.9707869e-004	620.816558	283.799835	1.2912016e-014
1.2207031e+012	6.3169061e-011	1.5360048e-010	2.1879534e-010	1.9557213e-004	624.431456	290.675628	1.3211577e-014
1.2359619e+012	6.3146192e-011	1.5371151e-010	2.1918219e-010	1.9411071e-004	627.932893	297.914092	1.3486222e-014
1.2512207e+012	6.3120938e-011	1.5380480e-010	2.1954266e-010	1.9258369e-004	631.479160	305.484250	1.3705214e-014
1.2664795e+012	6.3090525e-011	1.5390354e-010	2.1987561e-010	1.9088438e-004	635.360304	313.296757	1.3889759e-014
1.2817383e+012	6.3060955e-011	1.5403050e-010	2.2020506e-010	1.8907215e-004	639.785510	321.269961	1.4058173e-014
1.2969971e+012	6.3038748e-011	1.5418877e-010	2.2056286e-010	1.8729695e-004	644.844517	329.508010	1.4230310e-014
1.3122559e+012	6.3009330e-011	1.5438076e-010	2.2093872e-010	1.8561327e-004	650.519126	338.282572	1.4473163e-014
1.3275146e+012	6.2949639e-011	1.5461414e-010	2.2128728e-010	1.8397449e-004	656.614506	347.792046	1.4858258e-014
1.3427734e+012	6.2862707e-011	1.5487867e-010	2.2158840e-010	1.8236576e-004	662.811219	358.047594	1.5369858e-014
1.3580322e+012	6.2772385e-011	1.5514924e-010	2.2185691e-010	1.8082269e-004	668.903447	369.027509	1.5930886e-014
1.3732910e+012	6.2681625e-011	1.5542324e-010	2.2208487e-010	1.7934350e-004	674.879749	380.784636	1.6512507e-014
1.3885498e+012	6.2566945e-011	1.5572067e-010	2.2222563e-010	1.7789198e-004	680.748897	393.301795	1.7128244e-014
1.4038086e+012	6.2418767e-011	1.5603726e-010	2.2225422e-010	1.7645517e-004	686.577599	406.381794	1.7736408e-014
1.4190674e+012	6.2251830e-011	1.5634304e-010	2.2219464e-010	1.7498801e-004	692.832335	419.824196	1.8282547e-014
1.4343262e+012	6.2067885e-011	1.5664448e-010	2.2206484e-010	1.7335933e-004	700.246141	433.617976	1.8856805e-014
1.4495850e+012	6.1848118e-011	1.5699405e-010	2.2184701e-010	1.7150388e-004	708.923404	447.839280	1.9659118e-014
1.4648438e+012	6.1593038e-011	1.5741002e-010	2.2153627e-010	1.6956949e-004	717.890693	462.482291	2.0757597e-014
1.4801025e+012	6.1321954e-011	1.5784696e-010	2.2115426e-010	1.6771288e-004	726.019908	477.542552	2.2028278e-014
1.4953613e+012	6.1016846e-011	1.5828625e-010	2.2067909e-010	1.6578867e-004	733.138909	493.121064	2.3376951e-014
1.5106201e+012	6.0624660e-011	1.5879203e-010	2.2003663e-010	1.6348532e-004	739.748439	509.239376	2.4842052e-014
1.5258789e+012	6.0141922e-011	1.5942358e-010	2.1921161e-010	1.6078065e-004	746.006837	525.709828	2.6404189e-014
1.5411377e+012	5.9630801e-011	1.6015654e-010	2.1828040e-010	1.5799969e-004	751.779024	542.457735	2.7895720e-014
1.5563965e+012	5.9112753e-011	1.6095286e-010	2.1725959e-010	1.5536952e-004	757.440723	559.763145	2.9230961e-014
1.5716553e+012	5.8526235e-011	1.6183234e-010	2.1602380e-010	1.5279415e-004	763.613661	577.721096	3.0525089e-014
1.5869141e+012	5.7854876e-011	1.6278965e-010	2.1449552e-010	1.5015803e-004	770.223199	595.575167	3.1811179e-014
1.6021729e+012	5.7216911e-011	1.6372027e-010	2.1283141e-010	1.4758103e-004	777.050999	612.211050	3.2862904e-014
1.6174316e+012	5.6734958e-011	1.6453841e-010	2.1126243e-010	1.4523916e-004	785.065548	627.389578	3.3558223e-014
1.6326904e+012	5.6383671e-011	1.6529820e-010	2.0980547e-010	1.4316220e-004	795.333087	641.803475	3.4212381e-014
1.6479492e+012	5.6065294e-011	1.6608312e-010	2.0830913e-010	1.4132571e-004	806.416658	655.699292	3.5198136e-014
1.6632080e+012	5.5760664e-011	1.6686470e-010	2.0673975e-010	1.3971331e-004	815.412540	668.317644	3.6412453e-014
1.6784668e+012	5.5481827e-011	1.6761484e-010	2.0520492e-010	1.3817851e-004	822.235153	679.282425	3.7538661e-014
1.6937256e+012	5.5156926e-011	1.6845321e-010	2.0369895e-010	1.3651008e-004	829.782272	689.633985	3.8687751e-014
1.7089844e+012	5.4727559e-011	1.6948817e-010	2.0207374e-010	1.3478805e-004	838.042798	700.412592	4.0255287e-014
1.7242432e+012	5.4301307e-011	1.7060047e-010	2.0032034e-010	1.3342707e-004	841.597528	710.939697	4.2114713e-014
1.7395020e+012	5.4039374e-011	1.7158395e-010	1.9864455e-010	1.3276049e-004	836.392298	720.037910	4.3490070e-014
1.7547607e+012	5.3976278e-011	1.7235817e-010	1.9717314e-010	1.3287076e-004	826.118089	728.479085	4.3752588e-014
1.7700195e+012	5.4140569e-011	1.7280234e-010	1.9579385e-010	1.3381299e-004	817.242212	737.905684	4.3030289e-014
1.7852783e+012	5.4669307e-011	1.7267108e-010	1.9433943e-010	1.3545460e-004	809.919893	746.847304	4.1943790e-014
1.8005371e+012	5.5423192e-011	1.7217130e-010	1.9263806e-010	1.3693315e-004	800.144979	750.524898	4.1159017e-014
1.8157959e+012	5.5645929e-011	1.7232716e-010	1.9027900e-010	1.3708692e-004	787.851849	746.339421	4.1359709e-014
1.8310547e+012	5.4612703e-011	1.7392202e-010	1.8671252e-010	1.3605087e-004	774.152255	736.488764	4.2678303e-014
1.8463135e+012	5.2641455e-011	1.7617133e-010	1.8188179e-010	1.3530134e-004	753.885249	720.857901	4.3597702e-014
1.8615723e+012	5.0762163e-011	1.7754747e-010	1.7659237e-010	1.3536836e-004	724.598853	689.057145	4.1493342e-014
1.8768311e+012	4.9331156e-011	1.7787242e-010	1.7225355e-010	1.3524648e-004	704.112697	627.174716	3.5312046e-014
1.8920898e+012	4.8107268e-011	1.7772049e-010	1.7076366e-010	1.3537654e-004	713.259120	536.698869	2.7038476e-014
1.9073486e+012	4.8163807e-011	1.7507923e-010	1.7459611e-010	1.3894037e-004	742.090902	441.646616	1.7041478e-014
1.9226074e+012	5.1968020e-011	1.6568398e-010	1.8554463e-010	1.4566968e-004	789.873680	369.897785	2.0631985e-015
1.9378662e+012	5.9574788e-011	1.5048793e-010	2.0201662e-010	1.4017538e-004	921.950363	330.318876	1.1712279e-014
1.9531250e+012	6.5779668e-011	1.4236850e-010	2.1836249e-010	9.6458860e-005	1149.334194	319.020100	7.3080454e-015
1.9683838e+012	6.4358956e-011	1.5574595e-010	2.2895615e-010	4.6275762e-005	1391.564900	349.663941	1.4361934e-014
1.9836426e+012	5.6210238e-011	1.8473092e-010	2.3325612e-010	4.0989024e-005	1588.518420	460.056331	3.8749227e-014
1.9989014e+012	5.0425861e-011	2.0848404e-010	2.3502446e-010	6.6722082e-005	1632.307464	667.198782	5.6455913e-014
