f[Hz]	Re[Y11]	Im[Y11]	Re[Y21]	Im[Y21]	Re[Y12]	Im[Y12]	Re[Y22]	Im[Y22]
0.0000000e+000	0.000000	0.000000	453.064020	0.000000	0.000000	0.000000	109.396130	0.000000
1.5258789e+010	-2.013643	16.982503	468.670934	17.647701	-8.705579	-19.713926	125.380295	39.037084
3.0517578e+010	-5.304364	36.793322	494.530278	13.942177	-23.759292	-27.721157	152.583325	56.631551
4.5776367e+010	-7.197503	58.926786	510.753004	-7.642569	-34.257505	-24.923544	171.336471	55.280914
6.1035156e+010	-6.956856	81.064310	510.857641	-30.871545	-35.374904	-19.661509	174.046653	49.978547
7.6293945e+010	-6.221066	101.828710	503.925893	-44.511510	-30.783878	-19.100803	167.423432	52.247467
9.1552734e+010	-6.617573	122.315352	501.144893	-51.205773	-26.795815	-23.553955	161.252848	62.207542
1.0681152e+011	-7.450980	144.376854	503.716241	-59.937682	-25.609720	-28.968915	158.583506	74.078862
1.2207031e+011	-6.605063	167.843200	504.858756	-73.771578	-25.090828	-33.058471	156.721579	84.997848
1.3732910e+011	-3.503156	190.553872	500.348724	-87.715979	-23.547641	-37.070219	153.879125	96.531942
1.5258789e+011	0.067641	211.213596	493.256944	-96.714767	-22.092495	-42.297910	151.625980	110.045454
1.6784668e+011	2.437623	230.963984	488.684599	-101.669413	-22.060989	-47.599891	151.657214	124.048093
1.8310547e+011	4.171463	251.476762	487.514117	-106.709885	-22.504041	-51.373940	153.116382	136.472477
1.9836426e+011	6.826095	272.530764	487.060467	-113.528452	-21.657923	-54.107981	154.083605	147.322865
2.1362305e+011	10.433805	292.588884	485.648211	-120.591245	-19.485076	-57.422579	154.052256	157.892303
2.2888184e+011	13.449868	311.239335	484.170345	-126.453634	-17.203016	-61.676179	153.672184	168.624309
2.4414062e+011	14.957792	329.828987	483.945465	-131.534511	-15.164745	-66.072858	152.989513	179.099894
2.5939941e+011	15.791381	349.669494	485.115550	-136.919399	-12.782268	-70.470960	151.353627	189.539419
2.7465820e+011	17.308618	370.607409	487.178694	-143.173338	-10.094987	-75.496230	148.826178	200.952528
2.8991699e+011	19.916726	391.621627	489.645275	-150.519066	-7.863674	-81.093080	146.490105	213.755998
3.0517578e+011	23.127799	412.075993	491.913789	-158.988160	-6.146081	-86.416749	145.173863	227.216697
3.2043457e+011	26.417047	431.995520	493.468848	-168.138299	-4.103943	-91.260401	144.680973	240.480828
3.3569336e+011	29.588986	451.627931	494.383651	-177.401223	-1.397563	-96.386591	144.504510	253.408896
3.5095215e+011	32.667173	471.166640	494.947439	-186.743801	1.337872	-102.225604	144.575296	266.110224
3.6621094e+011	35.785633	490.662132	494.915526	-196.275087	3.653318	-108.289790	144.904315	278.325771
3.8146973e+011	39.002736	509.952702	493.972767	-205.385821	5.927830	-114.177187	145.024860	289.773690
3.9672852e+011	42.060378	528.885216	492.813821	-213.269677	8.512110	-120.222423	144.307309	300.740294
4.1198730e+011	44.582720	547.730606	492.698627	-220.319623	11.101200	-126.764940	142.590277	311.884787
4.2724609e+011	46.657821	567.085099	493.763070	-227.966779	13.365684	-133.567938	140.151475	323.661252
4.4250488e+011	48.924312	587.178618	494.732867	-236.866918	15.466175	-140.376203	137.287840	336.245905
4.5776367e+011	51.878899	607.556237	494.614763	-246.139784	17.529957	-147.348137	134.274329	349.785693
4.7302246e+011	55.354172	627.650081	493.807191	-254.723679	19.299049	-154.514317	131.536861	364.314848
4.8828125e+011	58.892541	647.412965	493.180586	-262.620029	20.741992	-161.471169	129.460552	379.536706
5.0354004e+011	62.385191	667.148809	492.914683	-270.371235	22.379703	-168.090220	128.078409	395.033047
5.1879883e+011	66.062764	686.940484	492.755799	-278.122748	24.495693	-174.937528	127.230404	410.625667
5.3405762e+011	70.017894	706.550002	492.684276	-285.777257	26.571248	-182.462425	126.913924	426.253392
5.4931641e+011	74.028948	725.792770	492.725574	-293.423215	28.040616	-190.279523	127.134962	441.630651
5.6457520e+011	77.815358	744.766699	492.687944	-301.017069	29.126370	-197.802997	127.502220	456.445694
5.7983398e+011	81.280316	763.737753	492.664508	-308.197541	30.357462	-205.140342	127.411786	470.905113
5.9509277e+011	84.539974	782.946480	493.243047	-314.994663	31.673954	-212.760271	126.727744	485.676369
6.1035156e+011	87.844171	802.473393	494.607234	-322.172459	32.631287	-220.636051	125.933386	501.162252
6.2561035e+011	91.410486	822.170374	495.961810	-330.209130	33.194397	-228.348665	125.482123	517.146489
6.4086914e+011	95.223757	841.777888	496.557258	-338.432132	33.709204	-235.803191	125.319427	533.287379
6.5612793e+011	99.051445	861.200458	496.835343	-345.914007	34.272970	-243.245922	125.215130	549.623154
6.7138672e+011	102.722774	880.602767	497.768912	-352.822543	34.703401	-250.719619	125.233451	566.353688
6.8664551e+011	106.306009	900.185621	499.416921	-360.043326	35.014590	-258.045322	125.568425	583.418641
7.0190430e+011	109.968276	919.981832	501.030992	-367.738075	35.411410	-265.252707	126.144748	600.650284
7.1716309e+011	113.802852	939.920112	502.434548	-375.218082	35.889677	-272.554437	126.767260	618.191752
7.3242188e+011	117.856356	959.924672	504.356676	-382.229640	36.278794	-279.978675	127.591510	636.377786
7.4768066e+011	122.145868	979.868527	507.280759	-389.489197	36.568672	-287.444732	129.082017	655.210444
7.6293945e+011	126.543427	999.612444	510.727306	-397.740357	36.765297	-295.060251	131.471762	674.286471
7.7819824e+011	130.822216	1019.210787	513.901086	-406.932474	36.575546	-302.877809	134.577038	693.299366
7.9345703e+011	134.940857	1038.904967	516.470519	-416.530903	35.739039	-310.489260	138.227898	712.297681
8.0871582e+011	139.101257	1058.792967	518.536281	-426.087176	34.580399	-317.381166	142.557184	731.316206
8.2397461e+011	143.402613	1078.707860	520.380100	-435.330674	33.723143	-323.632796	147.657849	750.063659
8.3923340e+011	147.669535	1098.565260	522.442595	-444.233379	33.309633	-329.768492	153.213448	768.258147
8.5449219e+011	151.802775	1118.577108	525.054016	-453.204559	33.003739	-335.984796	158.799138	786.098420
8.6975098e+011	156.039615	1138.892104	527.974438	-462.779339	32.695243	-342.060699	164.467911	804.065224
8.8500977e+011	160.587902	1159.274670	530.607578	-472.945177	32.612069	-347.990920	170.728754	822.262414
9.0026855e+011	165.230427	1179.463501	532.781440	-483.191569	32.713153	-354.080576	177.907844	840.222900
9.1552734e+011	169.654634	1199.649107	534.848254	-493.297676	32.600448	-360.311242	185.766046	857.416710
9.3078613e+011	174.011652	1220.197508	536.936485	-503.519936	32.202000	-366.211745	193.798351	873.724075
9.4604492e+011	178.719469	1241.017766	538.731511	-513.867299	31.992537	-371.566985	201.664936	889.342759
9.6130371e+011	183.774711	1261.653058	540.225874	-523.858799	32.315180	-376.749418	209.214188	904.499596
9.7656250e+011	188.716241	1281.994916	542.027336	-533.331309	32.964644	-382.129706	216.347207	919.445375
9.9182129e+011	193.325423	1302.457075	544.510966	-542.873407	33.659111	-387.635243	223.128029	934.520819
1.0070801e+012	197.594128	1322.832694	546.704431	-552.235134	34.280511	-393.703922	227.983476	950.261311
1.0223389e+012	201.644784	1342.774691	548.343799	-560.988292	34.707799	-400.412206	231.037085	966.522535
1.0375977e+012	205.747845	1362.670415	550.036675	-569.727876	34.995039	-407.169366	234.222906	982.961055
1.0528564e+012	209.870159	1382.533161	551.837835	-578.493064	35.119635	-413.898830	237.600649	999.549866
1.0681152e+012	213.996814	1402.391038	553.722893	-587.341769	35.131257	-420.522309	241.155836	1016.236091
1.0833740e+012	218.128418	1422.266342	555.636248	-596.250326	35.122607	-427.033096	244.829733	1033.038022
1.0986328e+012	222.263133	1442.176751	557.611598	-605.147975	35.142309	-433.497681	248.622545	1050.037571
1.1138916e+012	226.403287	1462.155538	559.758274	-614.060545	35.162593	-439.974887	252.607270	1067.281079
1.1291504e+012	230.588610	1482.239923	562.096207	-623.130347	35.141177	-446.468000	256.841151	1084.753210
1.1444092e+012	234.889818	1502.416757	564.490139	-632.441463	35.065368	-452.971473	261.338940	1102.459244
1.1596680e+012	239.335141	1522.609468	566.815026	-641.905001	34.902316	-459.502125	266.163393	1120.450540
1.1749268e+012	243.869001	1542.759720	569.110310	-651.399025	34.571665	-466.026381	271.464036	1138.714709
1.1901855e+012	248.430232	1562.896205	571.469993	-660.948249	34.048068	-472.413736	277.355424	1157.101794
1.2054443e+012	253.043287	1583.064538	573.843583	-670.639987	33.449179	-478.555627	283.799835	1175.431900
1.2207031e+012	257.755642	1603.213692	576.092221	-680.400777	32.927175	-484.500627	290.675628	1193.638594
1.2359619e+012	262.494330	1623.246704	578.237339	-690.005342	32.502477	-490.379295	297.914092	1211.740869
1.2512207e+012	267.087281	1643.199429	580.524557	-699.325890	32.102381	-496.234818	305.484250	1229.733084
1.2664795e+012	271.465792	1663.274015	583.226279	-708.470124	31.712823	-502.044451	313.296757	1247.621296
1.2817383e+012	275.767861	1683.646043	586.476296	-717.685479	31.345395	-507.855043	321.269961	1265.544162
1.2969971e+012	280.196257	1704.303934	590.261120	-727.247088	30.895303	-513.719961	329.508010	1283.706952
1.3122559e+012	284.840440	1725.115172	594.414233	-737.405349	30.231226	-519.521174	338.282572	1302.150989
1.3275146e+012	289.674398	1745.975546	598.622295	-748.261909	29.427896	-525.064230	347.792046	1320.697478
1.3427734e+012	294.649044	1766.847201	602.603334	-759.672857	28.692671	-530.366015	358.047594	1339.151922
1.3580322e+012	299.731383	1787.724218	606.290618	-771.404936	28.036645	-535.622210	369.027509	1357.431321
1.3732910e+012	304.915284	1808.611763	609.720778	-783.337124	27.259360	-540.857297	380.784636	1375.433506
1.3885498e+012	310.225565	1829.477871	612.869898	-795.335753	26.301360	-545.866299	393.301795	1392.944696
1.4038086e+012	315.630528	1850.214202	615.889312	-807.102814	25.331880	-550.557835	406.381794	1409.810992
1.4190674e+012	320.943762	1870.760770	619.365379	-818.577533	24.418031	-555.053706	419.824196	1426.092247
1.4343262e+012	325.964821	1891.291927	623.813535	-830.459155	23.430139	-559.364294	433.617976	1441.914524
1.4495850e+012	330.768630	1912.101133	628.809843	-843.778296	22.372602	-563.313333	447.839280	1457.271684
1.4648438e+012	335.663522	1933.216640	633.127602	-858.755929	21.426840	-566.895219	462.482291	1472.099087
1.4801025e+012	340.742446	1954.329830	635.933692	-874.533918	20.534842	-570.279361	477.542552	1486.401841
1.4953613e+012	345.670970	1975.262311	637.392603	-890.183828	19.419788	-573.291855	493.121064	1500.127737
1.5106201e+012	350.113070	1996.326612	637.965644	-905.427176	18.240466	-575.419330	509.239376	1513.059653
1.5258789e+012	354.219708	2018.009861	637.798685	-920.178687	17.659570	-576.603456	525.709828	1525.061534
1.5411377e+012	358.480670	2040.417471	637.109944	-934.143298	17.932654	-577.420173	542.457735	1536.244308
1.5563965e+012	363.193400	2063.231411	636.414120	-947.285408	18.606835	-578.071153	559.763145	1546.538036
1.5716553e+012	368.264656	2086.118542	635.910124	-959.932959	19.636911	-577.946651	577.721096	1555.288683
1.5869141e+012	373.428111	2109.003482	635.500191	-971.981685	22.016741	-576.863740	595.575167	1561.844303
1.6021729e+012	378.487387	2132.058539	635.901814	-983.063062	26.462979	-575.988274	612.211050	1566.532115
1.6174316e+012	383.479083	2155.585864	638.426537	-994.203029	32.142911	-576.575970	627.389578	1570.404405
1.6326904e+012	388.743782	2179.750575	642.598599	-1007.850783	37.704329	-578.411697	641.803475	1573.877018
1.6479492e+012	394.635694	2204.296340	645.466491	-1024.831244	42.935545	-580.520816	655.699292	1576.389016
1.6632080e+012	401.031097	2228.786650	645.020456	-1042.704315	48.291929	-582.712555	668.317644	1577.768330
1.6784668e+012	407.458801	2253.279409	642.838979	-1059.211261	53.568071	-585.117885	679.282425	1578.997429
1.6937256e+012	413.913433	2278.364939	640.804277	-1075.859655	58.586459	-586.979554	689.633985	1580.782938
1.7089844e+012	421.103126	2304.299088	636.537923	-1094.877037	64.529059	-587.657169	700.412592	1582.183480
1.7242432e+012	429.656938	2330.571497	625.996345	-1113.462772	72.742401	-588.286204	710.939697	1581.932106
1.7395020e+012	439.655565	2356.513805	610.530155	-1125.393813	82.774044	-590.629446	720.037910	1580.478668
1.7547607e+012	451.073048	2381.552129	597.017333	-1129.097791	93.401609	-595.114746	728.479085	1578.815179
1.7700195e+012	463.556187	2404.705182	589.659207	-1130.092232	104.229455	-602.116794	737.905684	1575.377187
1.7852783e+012	475.438794	2425.393902	585.301761	-1133.956548	113.319402	-613.238432	746.847304	1566.712504
1.8005371e+012	485.007569	2445.441181	578.018719	-1140.434546	115.344824	-627.008576	750.524898	1552.326654
1.8157959e+012	494.017257	2467.791638	564.243929	-1145.062152	107.910629	-634.863411	746.339421	1536.026329
1.8310547e+012	507.135768	2491.201086	543.074657	-1141.177113	99.262186	-628.311281	736.488764	1519.789368
1.8463135e+012	524.982089	2509.228513	518.835439	-1119.386388	102.279926	-610.679289	720.857901	1499.282188
1.8615723e+012	541.044330	2518.349031	505.915028	-1073.993939	119.850250	-593.744892	689.057145	1471.786095
1.8768311e+012	550.728039	2523.058521	521.201669	-1014.398315	145.919340	-581.736536	627.174716	1449.559597
1.8920898e+012	558.612652	2524.943057	565.970620	-959.141438	183.125678	-571.916092	536.698869	1458.182303
1.9073486e+012	563.759114	2511.045919	629.310402	-911.169490	241.728624	-577.205891	441.646616	1515.193136
1.9226074e+012	537.823483	2472.452625	722.475783	-858.104574	306.853854	-627.778810	369.897785	1613.618674
1.9378662e+012	441.506368	2444.317655	887.685232	-822.348969	325.559986	-725.380980	330.318876	1734.367883
1.9531250e+012	286.303922	2506.112748	1129.970698	-894.729129	261.226753	-807.237978	319.020100	1872.472991
1.9683838e+012	170.344989	2707.011768	1337.129255	-1161.039950	161.976117	-795.973557	349.663941	2035.692026
1.9836426e+012	215.368643	2982.667627	1325.409853	-1563.369867	134.651780	-700.581580	460.056331	2206.627917
1.9989014e+012	443.915175	3174.214844	1022.004458	-1874.699029	223.341082	-633.321966	667.198782	2318.460111
